,Servo Displacement (deg),Spring Displacement (deg),Spring Displacement (rad),Tz (Nm),Spring Moment (Nm),Force (N),Fx (N),Fy (N),"Min Laminate Length (m, 2*r)"
0,0.0,0.0,0.0,0.00045811999999999936,0.00022905999999999968,-0.015270666666666646,0.0,-0.015270666666666646,0.03
1,-0.8799999999999999,-1.7599999999999922,-0.030717794835100065,0.008387119999999998,0.004194549398489922,-0.27960364467129695,-0.008587456747223905,-0.2794717404319933,0.03000353878377408
2,-1.7599999999999998,-3.52000000000001,-0.061435589670200574,0.017074119999999998,0.008545120494016817,-0.5694059530760543,-0.0349597891613758,-0.5683317275502415,0.030014159310608624
3,-2.6399999999999997,-5.280000000000002,-0.09215338450530064,0.02545312,0.012753617558883148,-0.8493387730861381,-0.07815870899710779,-0.845734927548444,0.03003187411906769
4,-3.5199999999999996,-7.039999999999995,-0.1228711793404007,0.034108120000000006,0.01711858998929931,-1.1390863020526776,-0.13960897053607413,-1.1304985355452264,0.030056704146913096
5,-4.3999999999999995,-8.800000000000011,-0.15358897417550121,0.039727120000000005,0.019981165328248757,-1.3281517255487691,-0.20318840244516695,-1.3125172300545063,0.030088678791563347
6,-5.279999999999999,-10.560000000000004,-0.18430676901060128,0.04821812,0.024314964813284472,-1.6141195681738136,-0.2958117639187234,-1.5867820835542958,0.030127835995190855
7,-6.159999999999999,-12.319999999999997,-0.21502456384570134,0.05546311999999999,0.02805459245473277,-1.8595072393082697,-0.3967657123011634,-1.8166849321172929,0.030174222354916975
8,-7.039999999999999,-14.07999999999999,-0.2457423586808014,0.06279011999999999,0.03187385318318419,-2.1089033834012283,-0.513046523764399,-2.0455455861394083,0.03022789325870226
9,-7.919999999999999,-15.840000000000007,-0.2764601535159019,0.06933811999999999,0.03534003164386956,-2.333529208410121,-0.6369413140217546,-2.2449196709449106,0.030288913047672898
10,-8.799999999999999,-17.599999999999998,-0.307177948351002,0.07546912,0.038638890326707365,-2.5456032032301925,-0.7697137624546948,-2.4264452172228523,0.030357355205773873
11,-9.68,-19.359999999999992,-0.33789574318610205,0.08129512,0.04183021908536121,-2.748976650064824,-0.9112927896005001,-2.593533896871942,0.03043330257779731
12,-10.559999999999999,-21.120000000000008,-0.36861353802120256,0.08850012,0.04578789651876399,-3.000827417918152,-1.081265482450703,-2.799255284640894,0.030516847617001387
13,-11.439999999999998,-22.880000000000003,-0.3993313328563026,0.09461612,0.04924534274550825,-3.217798853823367,-1.2510878272202446,-2.964626234831012,0.03060809266371344
14,-12.319999999999997,-24.639999999999993,-0.4300491276914027,0.10013412,0.052455207408515024,-3.416481631825067,-1.424384001940554,-3.1053948147721706,0.030707150256501583
15,-11.439999999999998,-22.880000000000003,-0.3993313328563026,0.08526112,0.04437629737158857,-2.89964473507999,-1.1273887511680307,-2.6715041069436696,0.03060809266371344
16,-12.319999999999997,-24.639999999999993,-0.4300491276914027,0.09373411999999999,0.049102570690735946,-3.1981196744455,-1.3333455266194592,-2.9069157467527793,0.030707150256501583
17,-13.199999999999996,-26.399999999999984,-0.46076692252650275,0.10003611999999999,0.052769688988671064,-3.425030394036551,-1.5228890029662638,-3.0678400031159696,0.030814143477704812
18,-14.079999999999995,-28.15999999999998,-0.4914847173616028,0.10770911999999999,0.05724235915800611,-3.701508440752463,-1.7468728069340567,-3.2633725091316284,0.030929206335333692
19,-14.959999999999994,-29.919999999999995,-0.5222025121967033,0.11437412,0.06127001109840925,-3.9462228359029297,-1.9683377251805052,-3.4202808759271504,0.03105248418359535
20,-15.839999999999993,-31.67999999999999,-0.5529203070318034,0.12085011999999999,0.06528929242556457,-4.187340398111264,-2.1990849441000666,-3.563403572188674,0.03118413418455966
21,-16.71999999999999,-33.43999999999998,-0.5836381018669035,0.12788812000000002,0.06971418637231233,-4.4511212651008005,-2.452850194634693,-3.7142975701083913,0.03132432581377159
22,-17.59999999999999,-35.199999999999974,-0.6143558967020035,0.13389512,0.07368433861420459,-4.682348261970354,-2.699056853761175,-3.826156994497432,0.03147324141293065
23,-18.47999999999999,-36.959999999999994,-0.645073691537104,0.14087012000000002,0.07830226639022596,-4.9509706484156775,-2.9768073621387794,-3.9561001365220667,0.031631076793106366
24,-19.35999999999999,-38.719999999999985,-0.6757914863722041,0.14758812000000002,0.08290479502925864,-5.214459136191219,-3.2617226143292704,-4.068384159611909,0.03179804189234266
25,-20.239999999999988,-40.479999999999976,-0.7065092812073042,0.15481712,0.08793266595980521,-5.500198400021399,-3.5706329714136533,-4.183630316250668,0.0319743614919284
26,-19.35999999999999,-38.719999999999985,-0.6757914863722041,0.13665512000000002,0.07676339202165285,-4.8281835895145715,-3.0201014503598267,-3.7670073007086513,0.03179804189234266
27,-20.239999999999988,-40.479999999999976,-0.7065092812073042,0.14570312000000002,0.0827561175421776,-5.176404699313138,-3.360431742366995,-3.937342265534387,0.0319743614919284
28,-21.119999999999987,-42.23999999999997,-0.7372270760424042,0.15294412000000002,0.08788197618019337,-5.465250123531125,-3.67394665245421,-4.0461184989663215,0.03216027599608283
29,-21.999999999999986,-43.99999999999996,-0.7679448708775043,0.16006112,0.09309452382157,-5.75438262906286,-3.9973300601023642,-4.139356451462283,0.0323560422803275
30,-22.879999999999985,-45.75999999999998,-0.7986626657126048,0.16581712,0.09767361517640381,-5.99925135487561,-4.2980059724206745,-4.185470281821751,0.03256193461439957
31,-23.759999999999984,-47.51999999999997,-0.8293804605477049,0.17252412,0.10297901358088667,-6.2833755430077405,-4.634071884255745,-4.243369649938386,0.03277824566621158
32,-24.639999999999983,-49.27999999999999,-0.8600982553828054,0.17935312,0.10854341309072112,-6.577334784997084,-4.985005869711154,-4.290809871443615,0.03300528759409021
33,-25.519999999999982,-51.03999999999998,-0.8908160502179054,0.18677112,0.11466949813550979,-6.898784207961266,-5.3643919499993205,-4.337801580846943,0.033243393235341395
34,-26.39999999999998,-52.79999999999997,-0.9215338450530055,0.19351512,0.12060029088112616,-7.201539922034583,-5.736242003746181,-4.354044662508168,0.03349291740010353
35,-27.27999999999998,-54.55999999999997,-0.9522516398881056,0.20052812,0.12692857397928053,-7.5207488271294505,-6.127328419745678,-4.360906942064453,0.03375423828047908
36,-28.15999999999998,-56.31999999999996,-0.9829694347232056,0.20557712,0.1322418659855601,-7.772587436016887,-6.4679411363225405,-4.310319350998745,0.034027758986093386
37,-29.039999999999978,-58.07999999999995,-1.0136872295583057,0.21148812,0.1383419418555005,-8.06331572275452,-6.8440389825927355,-4.263354412850431,0.03431390921853704
38,-29.919999999999977,-59.83999999999994,-1.0444050243934058,0.21867512,0.14554893918753586,-8.410037883744389,-7.271535442927556,-4.225341348135575,0.03461314709862718
39,-30.799999999999976,-61.59999999999993,-1.0751228192285058,0.22526712000000002,0.15265886708508977,-8.741856315797383,-7.689761432396181,-4.1578384960071295,0.03492596116209789
40,-31.679999999999975,-63.35999999999993,-1.105840614063606,0.22933512,0.15833870308101128,-8.983024171764589,-8.029399118875281,-4.027837268350315,0.03525287254123193
41,-30.799999999999976,-61.59999999999993,-1.0751228192285058,0.21938412000000002,0.14867207968770313,-8.513556949667803,-7.488938220793943,-4.049253790560503,0.03492596116209789
42,-29.919999999999977,-59.83999999999994,-1.0444050243934058,0.21035112,0.14000853125362436,-8.089904732134418,-6.994740071662049,-4.064501187710005,0.03461314709862718
43,-29.039999999999978,-58.07999999999995,-1.0136872295583057,0.20222112,0.13228006577860824,-7.709996837500985,-6.5441464437036165,-4.076542475877873,0.03431390921853704
44,-28.15999999999998,-56.31999999999996,-0.9829694347232056,0.19354112,0.12449945234049006,-7.3175228725095325,-6.089260184294523,-4.057961483018978,0.034027758986093386
45,-27.27999999999998,-54.55999999999997,-0.9522516398881056,0.18476312,0.11694977914101366,-6.929487086583058,-5.645613772756065,-4.018063764052082,0.03375423828047908
46,-26.39999999999998,-52.79999999999997,-0.9215338450530055,0.17631112000000002,0.10987860978293137,-6.561304198755271,-5.226275095566348,-3.966958710910223,0.03349291740010353
47,-25.519999999999982,-51.03999999999998,-0.8908160502179054,0.16804112000000002,0.10317007734669567,-6.206952257630217,-4.826433719500477,-3.902793086978816,0.033243393235341395
48,-24.639999999999983,-49.27999999999999,-0.8600982553828054,0.15940312,0.09646979490576908,-5.845717576661418,-4.43050831148224,-3.8135298724377433,0.03300528759409021
49,-23.759999999999984,-47.51999999999997,-0.8293804605477049,0.15123212,0.09026989698220911,-5.5079150910911,-4.062159628974725,-3.7196757653587227,0.03277824566621158
50,-22.879999999999985,-45.75999999999998,-0.7986626657126048,0.14281412000000002,0.08412383111367967,-5.167004486058906,-3.7017645747676897,-3.6048404114395756,0.03256193461439957
51,-21.999999999999986,-43.99999999999996,-0.7679448708775043,0.13489112,0.07845518377078867,-4.849491979956367,-3.368740196350464,-3.4884325926057054,0.0323560422803275
52,-21.119999999999987,-42.23999999999997,-0.7372270760424042,0.12702112000000002,0.07298657210372968,-4.538926973923952,-3.0512373971289937,-3.3603286180038894,0.03216027599608283
53,-20.239999999999988,-40.479999999999976,-0.7065092812073042,0.11896311999999999,0.0675683948422256,-4.2264108923196195,-2.7437123145956916,-3.2147459877032083,0.0319743614919284
54,-19.35999999999999,-38.719999999999985,-0.6757914863722041,0.11158312,0.06267967701143674,-3.94236080470922,-2.4660059758293325,-3.075877637631502,0.03179804189234266
55,-18.47999999999999,-36.959999999999994,-0.645073691537104,0.10330911999999999,0.05742408847795274,-3.6308652312758234,-2.183084311932712,-2.901262693152917,0.031631076793106366
56,-17.59999999999999,-35.199999999999974,-0.6143558967020035,0.09549212,0.05255063593854845,-3.339385050880603,-1.9249294594618875,-2.7287614579036794,0.03147324141293065
57,-16.71999999999999,-33.43999999999998,-0.5836381018669035,0.08914812,0.048596293795086384,-3.102783062850231,-1.709830307094333,-2.5891587545092634,0.03132432581377159
58,-15.839999999999993,-31.67999999999999,-0.5529203070318034,0.08133412,0.043940768489563437,-2.818149013181198,-1.4800203651732258,-2.398229259092356,0.03118413418455966
59,-14.959999999999994,-29.919999999999995,-0.5222025121967033,0.07382612,0.039548520170056764,-2.547204915151347,-1.2705211379961043,-2.2077202987870237,0.03105248418359535
60,-14.079999999999995,-28.15999999999998,-0.4914847173616028,0.06648712,0.03533479432773614,-2.2848820590245458,-1.0783166916539793,-2.0144277440882967,0.030929206335333692
61,-13.199999999999996,-26.399999999999984,-0.46076692252650275,0.05862811999999999,0.030926705857749034,-2.0073058905645498,-0.8925188143301285,-1.7979674925765154,0.030814143477704812
62,-12.319999999999997,-24.639999999999993,-0.4300491276914027,0.051926120000000006,0.027201471331844137,-1.7716701878634802,-0.7386366865844075,-1.6103512349161058,0.030707150256501583
63,-11.439999999999998,-22.880000000000003,-0.3993313328563026,0.044449119999999995,0.023134664041774545,-1.511669759756131,-0.5877407883841771,-1.392733365806501,0.03060809266371344
64,-10.559999999999999,-21.120000000000008,-0.36861353802120256,0.036319119999999996,0.018790665009409836,-1.2314945006928748,-0.443735113681032,-1.1487723247551165,0.030516847617001387
65,-9.68,-19.359999999999992,-0.33789574318610205,0.02834012,0.014582344284692943,-0.9583149411678724,-0.31768385374685376,-0.9041263714404809,0.03043330257779731
66,-8.8,-17.599999999999998,-0.307177948351002,0.02007712,0.010279139835685682,-0.6772091814988298,-0.2047676662249991,-0.6455094719483847,0.030357355205773873
67,-7.920000000000001,-15.840000000000007,-0.2764601535159019,0.01207612,0.0061549182893214606,-0.4064139429258485,-0.11093147234283814,-0.39098145921307437,0.030288913047672898
68,-7.040000000000001,-14.07999999999999,-0.2457423586808014,0.00399512,0.0020280239682485533,-0.13418228990634065,-0.03264339083954014,-0.13015105054899204,0.03022789325870226
69,-6.160000000000001,-12.319999999999997,-0.21502456384570134,-0.00137388,-0.0006949418547263166,0.0460619562321926,0.00982830531020113,0.04500120250244319,0.030174222354916975
70,-5.280000000000001,-10.560000000000004,-0.18430676901060128,-0.00747788,-0.003770872632072003,0.2503248247019087,0.04587580090581183,0.24608520628695182,0.030127835995190855
71,-4.400000000000001,-8.800000000000011,-0.15358897417550121,-0.01275188,-0.006413689754655981,0.4263191347872898,0.06522078935932116,0.42130066855053816,0.030088678791563347
72,-3.5200000000000014,-7.039999999999995,-0.1228711793404007,-0.017922880000000002,-0.008995348736529976,0.5985585573562511,0.07336067850827288,0.5940459219902131,0.030056704146913096
73,-2.6400000000000015,-5.280000000000002,-0.09215338450530064,-0.02224388,-0.011145586024255168,0.7422504489773861,0.06830411925479414,0.7391009919489745,0.03003187411906769
74,-1.7600000000000016,-3.52000000000001,-0.061435589670200574,-0.02714488,-0.013585254783006515,0.9052563919859486,0.05557998196163824,0.9035485603090525,0.030014159310608624
75,-0.8800000000000017,-1.7599999999999922,-0.030717794835100065,-0.032466880000000004,-0.016237270001483766,1.0823569925201546,0.03324239163351769,1.081846385886535,0.03000353878377408
76,-1.7763568394002505e-15,0.0,0.0,-0.037135879999999996,-0.018567939999999998,1.2378626666666666,-0.0,1.2378626666666666,0.03
77,0.8799999999999981,1.7599999999999922,0.030717794835100065,-0.042335880000000006,-0.021172934212046756,1.4113624639168953,-0.04334712491959835,1.410696647516671,0.03000353878377408
78,1.759999999999998,3.5199999999999845,0.06143558967020013,-0.047594880000000006,-0.023819908990815992,1.587244789654778,-0.0974519899099321,1.5842503375252395,0.030014159310608624
79,2.639999999999998,5.280000000000002,0.09215338450530064,-0.05255488,-0.026333307679883518,1.7536906005585648,-0.16137988475667894,1.7462494825434824,0.03003187411906769
80,3.519999999999998,7.039999999999995,0.1228711793404007,-0.057491879999999995,-0.028854710298720568,1.9200182533442558,-0.23532174101016143,1.9055429072532253,0.030056704146913096
81,4.399999999999998,8.799999999999986,0.15358897417550077,-0.062472879999999995,-0.03142138025137097,2.0885849105598684,-0.31952390919222384,2.063998885676272,0.030088678791563347
82,5.279999999999998,10.560000000000004,0.18430676901060128,-0.06680288,-0.03368670691901851,2.236251347384906,-0.4098267988808109,2.1983771477159952,0.030127835995190855
83,6.1599999999999975,12.319999999999997,0.21502456384570134,-0.07163888,-0.036236684526826234,2.4018305493080163,-0.5124820105983503,2.346519161737726,0.030174222354916975
84,7.039999999999997,14.07999999999999,0.2457423586808014,-0.07673988000000001,-0.03895510421727453,2.577427668139579,-0.6270274474407302,2.499993992922261,0.03022789325870226
85,7.919999999999997,15.839999999999982,0.2764601535159015,-0.08115888,-0.041364798863612294,2.73134917707391,-0.7455270444559764,2.6276334891089856,0.030288913047672898
86,8.799999999999997,17.599999999999998,0.307177948351002,-0.08627288000000001,-0.04417022947252049,2.9100182919834503,-0.8799019130288308,2.773802279025396,0.030357355205773873
87,9.679999999999996,19.359999999999992,0.33789574318610205,-0.09106888,-0.04685928506235639,3.079474200512349,-1.0208535727727963,2.9053432386859543,0.03043330257779731
88,10.559999999999995,21.119999999999983,0.3686135380212021,-0.09588888000000001,-0.04961066849107299,3.2513625990277024,-1.1715389323184813,3.032961470315482,0.030516847617001387
89,11.439999999999994,22.880000000000003,0.3993313328563026,-0.10061188,-0.05236598705241714,3.421708606789352,-1.330368422862235,3.1524926089092387,0.03060809266371344
90,12.319999999999993,24.639999999999993,0.4300491276914027,-0.10622788000000001,-0.05564742045934838,3.624394969544022,-1.5110662862175348,3.2943766593868347,0.030707150256501583
91,11.439999999999994,22.880000000000003,0.3993313328563026,-0.08933488,-0.04649658836917906,3.0381892057130226,-1.1812551699877494,2.799148062016074,0.03060809266371344
92,12.319999999999993,24.639999999999993,0.4300491276914027,-0.09544888,-0.0500008468373264,3.2566256666386546,-1.3577375791103345,2.9600944915460503,0.030707150256501583
93,13.199999999999992,26.399999999999984,0.46076692252650275,-0.10088788,-0.05321899780125786,3.454192899423851,-1.5358556787746274,3.093961202149419,0.030814143477704812
94,14.079999999999991,28.15999999999998,0.4914847173616028,-0.10594288,-0.05630368521433972,3.640810216977219,-1.718227167395648,3.2098589435159344,0.030929206335333692
95,14.95999999999999,29.91999999999997,0.5222025121967029,-0.11130688000000001,-0.05962689612763191,3.840394589694829,-1.915551621084729,3.3285571335816035,0.03105248418359535
96,15.83999999999999,31.679999999999964,0.552920307031803,-0.11634888,-0.06285749695330811,4.031376762381367,-2.1171767994181985,3.430679378821895,0.03118413418455966
97,16.719999999999988,33.43999999999998,0.5836381018669035,-0.12141088,-0.06618332270383243,4.225682180507473,-2.3286189572477047,3.5261769159537364,0.03132432581377159
98,17.599999999999987,35.199999999999974,0.6143558967020035,-0.12643188,-0.06957721429691,4.421356757256308,-2.548612916198218,3.6128891179115405,0.03147324141293065
99,18.479999999999986,36.959999999999965,0.6450736915371036,-0.13133588,-0.07300268546910266,4.615883673300225,-2.775333864250097,3.688347058966414,0.031631076793106366
100,19.359999999999985,38.719999999999985,0.6757914863722041,-0.13610687999999999,-0.07645542871927564,4.808813635640062,-3.0079852528902746,3.751894628146214,0.03179804189234266
101,20.239999999999984,40.479999999999976,0.7065092812073042,-0.14142987999999998,-0.08032901267492466,5.024589009866727,-3.261875641861031,3.8218663000041198,0.0319743614919284
102,21.119999999999983,42.23999999999997,0.7372270760424042,-0.14643188,-0.08414003094843353,5.232544083805868,-3.5175129016962305,3.873837964522052,0.03216027599608283
103,21.999999999999982,43.99999999999996,0.7679448708775043,-0.15051188,-0.08754050826390121,5.411076392190643,-3.7588495090282996,3.8924026115756085,0.0323560422803275
104,22.87999999999998,45.75999999999995,0.7986626657126044,-0.15593688,-0.09185371696800099,5.641784989481636,-4.041908589177315,3.936078355962308,0.03256193461439957
105,23.75999999999998,47.51999999999997,0.8293804605477049,-0.16096388,-0.09607874878337135,5.862348446696223,-4.323558877962777,3.9590362386912883,0.03277824566621158
106,24.63999999999998,49.27999999999996,0.8600982553828049,-0.16596287999999998,-0.10043972160376008,6.086280649270537,-4.612832667500668,3.97046432087277,0.03300528759409021
107,25.51999999999998,51.03999999999996,0.890816050217905,-0.17117388,-0.10509345831147755,6.322667338287935,-4.916412044443216,3.9755521478037132,0.033243393235341395
108,26.399999999999977,52.79999999999995,0.9215338450530051,-0.17586488,-0.10960050916834994,6.544697666021244,-5.213047495409046,3.9569184159182993,0.03349291740010353
109,27.279999999999976,54.55999999999997,0.9522516398881056,-0.17969488,-0.11374172794208581,6.739404219224552,-5.490748854109783,3.907844194846283,0.03375423828047908
110,28.159999999999975,56.31999999999996,0.9829694347232056,-0.18446188,-0.11865903761276775,6.974249327512978,-5.803605876643238,3.867597770051495,0.034027758986093386
111,29.039999999999974,58.07999999999995,1.0136872295583057,-0.18839888,-0.12323844432775427,7.18300229466006,-6.096840233847702,3.7979022009561523,0.03431390921853704
112,29.919999999999973,59.83999999999994,1.0444050243934058,-0.19298588,-0.12845032444556606,7.422054058220015,-6.417299171504121,3.7289620253567497,0.03461314709862717
113,30.799999999999972,61.59999999999993,1.0751228192285058,-0.19778488,-0.13403472156682442,7.675363374811322,-6.751622438885472,3.6505886344716014,0.03492596116209789
