,Servo Displacement (deg),Spring Displacement (deg),Spring Displacement (rad),Tz (Nm),Spring Moment (Nm),Force (N),Fx (N),Fy (N),"Min Laminate Length (m, 2*r)"
0,0.0,0.0,0.0,2.8760000000000938e-05,1.4380000000000469e-05,-0.0009586666666666979,0.0,-0.0009586666666666979,0.03
1,-0.8799999999999999,-1.7599999999999922,-0.030717794835100065,0.00991976,0.004961050198538282,-0.3306976709841453,-0.010156705751538288,-0.3305416629150018,0.03000353878377408
2,-1.7599999999999998,-3.52000000000001,-0.061435589670200574,0.022747760000000002,0.011384618953654772,-0.7586165473327673,-0.046576742666303045,-0.7571853623318968,0.030014159310608624
3,-2.6399999999999997,-5.280000000000002,-0.09215338450530064,0.03652376,0.01830070603731228,-1.2187521807500443,-0.11215324209056515,-1.2135808701407433,0.03003187411906769
4,-3.5199999999999996,-7.039999999999995,-0.1228711793404007,0.04856076,0.024372253293607687,-1.621751551632502,-0.19876550545879884,-1.6095248892335081,0.030056704146913096
5,-4.3999999999999995,-8.800000000000011,-0.15358897417550121,0.060100759999999996,0.030228297996768946,-2.0092805141875987,-0.3073914597922122,-1.985628030407708,0.030088678791563347
6,-5.279999999999999,-10.560000000000004,-0.18430676901060128,0.07009876,0.035348721245350774,-2.3465821608291613,-0.43004658506211463,-2.3068393468549275,0.030127835995190855
7,-6.159999999999999,-12.319999999999997,-0.21502456384570134,0.08070276,0.040821415055123295,-2.7057144721061106,-0.5773221567064716,-2.6434049882566684,0.030174222354916975
8,-7.039999999999999,-14.07999999999999,-0.2457423586808014,0.09015875999999999,0.045766867134796684,-3.028121526241061,-0.7366706482629553,-2.937147652684885,0.03022789325870226
9,-7.919999999999999,-15.840000000000007,-0.2764601535159019,0.09962475999999999,0.05077642963081363,-3.3528063255947567,-0.9151549759858205,-3.2254924626910237,0.030288913047672898
10,-8.799999999999999,-17.599999999999998,-0.307177948351002,0.10718475999999999,0.05487675205878179,-3.6153842577395814,-1.093183343033594,-3.4461505349628996,0.030357355205773873
11,-9.68,-19.359999999999992,-0.33789574318610205,0.11512776,0.05923872704298715,-3.893019950204478,-1.2905460693194977,-3.6728864909841783,0.03043330257779731
12,-8.8,-17.599999999999998,-0.307177948351002,0.09754476,0.04994123800019122,-3.29022325309107,-0.9948644455817188,-3.1362100998017595,0.030357355205773873
13,-9.68,-19.359999999999992,-0.33789574318610205,0.10864576,0.055903428686685915,-3.6738325420830535,-1.2178848829876434,-3.4660931838394946,0.03043330257779731
14,-10.559999999999999,-21.120000000000008,-0.36861353802120256,0.11844976,0.06128314123814104,-4.016348084655985,-1.4471803754906774,-3.7465612096847507,0.030516847617001387
15,-11.439999999999998,-22.880000000000003,-0.3993313328563026,0.12870876,0.06698971592313617,-4.377255169679615,-1.7018871931401534,-4.032857895130009,0.03060809266371344
16,-12.319999999999997,-24.639999999999993,-0.4300491276914027,0.13680976,0.07166772261352237,-4.6678198409732445,-1.9460862436632662,-4.242792759493219,0.030707150256501583
17,-13.199999999999996,-26.399999999999984,-0.46076692252650275,0.14596176,0.07699575592734953,-4.997429572109239,-2.222032993258846,-4.476256438706463,0.030814143477704812
18,-14.079999999999995,-28.15999999999998,-0.4914847173616028,0.15391376,0.08179796408399916,-5.289367156541144,-2.4962395195223466,-4.663281374512049,0.030929206335333692
19,-14.959999999999994,-29.919999999999995,-0.5222025121967033,0.16141276000000002,0.08646852624199312,-5.56918575214497,-2.777855906856437,-4.8269396622122125,0.03105248418359535
20,-15.839999999999993,-31.67999999999999,-0.5529203070318034,0.16803076,0.09077863907896706,-5.8221041855261575,-3.0576214112298095,-4.954578534316539,0.03118413418455966
21,-14.959999999999994,-29.919999999999995,-0.5222025121967033,0.15788276,0.08457751156859161,-5.447391008624868,-2.717105868562046,-4.721377394349317,0.03105248418359535
22,-15.839999999999993,-31.67999999999999,-0.5529203070318034,0.16998476,0.09183428782304405,-5.889808405744635,-3.093177950029866,-5.012194452116677,0.03118413418455966
23,-16.71999999999999,-33.43999999999998,-0.5836381018669035,0.17862676,0.09737276017289412,-6.217069810331537,-3.425999874210087,-5.187916912253731,0.03132432581377159
24,-17.59999999999999,-35.199999999999974,-0.6143558967020035,0.18563176,0.10215572801600804,-6.491592440430225,-3.741963666067513,-5.304571644768448,0.03147324141293065
25,-18.47999999999999,-36.959999999999994,-0.645073691537104,0.19473176,0.10824110993983356,-6.843972505129733,-4.114988592401581,-5.468713608827637,0.031631076793106366
26,-19.35999999999999,-38.719999999999985,-0.6757914863722041,0.20280576,0.11392224498525368,-7.165362280542658,-4.482041872396196,-5.590502416197552,0.03179804189234266
27,-20.239999999999988,-40.479999999999976,-0.7065092812073042,0.21129976,0.12001354380876618,-7.506861010441905,-4.8733233760438885,-5.709963353875142,0.0319743614919284
28,-21.119999999999987,-42.23999999999997,-0.7372270760424042,0.21865676,0.12564058150099694,-7.813401944454715,-5.2524626081635795,-5.784538572388654,0.03216027599608283
29,-21.999999999999986,-43.99999999999996,-0.7679448708775043,0.22521976000000002,0.13099200050835755,-8.09691119658357,-5.624587137569948,-5.824430483510218,0.0323560422803275
30,-22.879999999999985,-45.75999999999998,-0.7986626657126048,0.23332276000000002,0.137437421854489,-8.44160050574583,-6.047762836440989,-5.889412854671635,0.03256193461439957
31,-23.759999999999984,-47.51999999999997,-0.8293804605477049,0.24025776000000001,0.1434089745245674,-8.750253200548558,-6.453426515609902,-5.909333065696442,0.03277824566621158
32,-24.639999999999983,-49.27999999999999,-0.8600982553828054,0.24724276,0.1496298086833952,-9.067020443729586,-6.871955223547749,-5.91498868406061,0.03300528759409021
33,-25.519999999999982,-51.03999999999998,-0.8908160502179054,0.25448976,0.1562458535335995,-9.400114628941843,-7.309389266934089,-5.910582338625795,0.033243393235341395
34,-26.39999999999998,-52.79999999999997,-0.9215338450530055,0.26104176,0.16268347500764344,-9.71450011739739,-7.737889982156585,-5.873378172308903,0.03349291740010353
35,-27.27999999999998,-54.55999999999997,-0.9522516398881056,0.27440176,0.1736884786742367,-10.291358212914263,-8.384608116189552,-5.967445065054736,0.03375423828047908
36,-26.39999999999998,-52.79999999999997,-0.9215338450530055,0.26089276,0.1625906169232659,-9.70895517885004,-7.733473272710015,-5.870025707371209,0.03349291740010353
37,-27.27999999999998,-54.55999999999997,-0.9522516398881056,0.27080476000000003,0.1714116803847825,-10.15645377391995,-8.274698342309335,-5.8892207129259395,0.03375423828047908
38,-28.15999999999998,-56.31999999999996,-0.9829694347232056,0.27753476,0.1785301522769391,-10.493206581714746,-8.731898233438642,-5.8190495450213175,0.034027758986093386
39,-29.039999999999978,-58.07999999999995,-1.0136872295583057,0.28557876,0.18680727887261908,-10.888137383758197,-9.241711383317867,-5.756935503811534,0.03431390921853704
40,-29.919999999999977,-59.83999999999994,-1.0444050243934058,0.29295276000000003,0.19498772174018147,-11.266685527587581,-9.741466598685072,-5.660568106140458,0.03461314709862718
41,-30.799999999999976,-61.59999999999993,-1.0751228192285058,0.29901376,0.20263543940390827,-11.603714409658734,-10.207190820408092,-5.519007488371303,0.03492596116209789
42,-31.679999999999975,-63.35999999999993,-1.105840614063606,0.30916076000000003,0.2134523215717671,-12.109783185589329,-10.824225848770187,-5.429823530907554,0.03525287254123193
43,-32.559999999999974,-65.11999999999992,-1.136558408898706,0.30953676,0.2178732902435692,-12.241985346660622,-11.105818050289821,-5.150437909703423,0.035594437352108224
44,-31.679999999999975,-63.35999999999993,-1.105840614063606,0.29450176,0.203331381314276,-11.535592231609417,-10.31099018873001,-5.1723659443122365,0.03525287254123193
45,-30.799999999999976,-61.59999999999993,-1.0751228192285058,0.27653676,0.18740324148939874,-10.731457932947093,-9.439911655495035,-5.104141191528902,0.03492596116209789
46,-29.919999999999977,-59.83999999999994,-1.0444050243934058,0.25999476,0.1730510609177577,-9.999152080835852,-8.645524522018981,-5.0237384560556535,0.03461314709862718
47,-29.039999999999978,-58.07999999999995,-1.0136872295583057,0.24500275999999999,0.1602650663231445,-9.341113849923355,-7.928617646621533,-4.938970557809749,0.03431390921853704
48,-28.15999999999998,-56.31999999999996,-0.9829694347232056,0.23094876,0.1485627144180796,-8.73185415935236,-7.266192780532589,-4.842284536903548,0.034027758986093386
49,-27.27999999999998,-54.55999999999997,-0.9522516398881056,0.21787676,0.1379097677174949,-8.171404525354173,-6.657432700960385,-4.738189712238417,0.03375423828047908
50,-26.39999999999998,-52.79999999999997,-0.9215338450530055,0.20534376000000001,0.12797200129180686,-7.6417351025629845,-6.086870634807115,-4.620186279022323,0.03349291740010353
51,-25.519999999999982,-51.03999999999998,-0.8908160502179054,0.19428776,0.1192843943596439,-7.176427118326262,-5.580282945925473,-4.512377247977158,0.033243393235341395
52,-24.639999999999983,-49.27999999999999,-0.8600982553828054,0.18288176,0.11067892447278374,-6.706738982792651,-5.083082173664482,-4.375228382505876,0.03300528759409021
53,-23.759999999999984,-47.51999999999997,-0.8293804605477049,0.17129376000000002,0.10224461621575663,-6.238565495965652,-4.601023886772768,-4.213107955037418,0.03277824566621158
54,-22.879999999999985,-45.75999999999998,-0.7986626657126048,0.16064976,0.09462981166493321,-5.812296645487762,-4.164067184063673,-4.055038443930258,0.03256193461439957
55,-21.999999999999986,-43.99999999999996,-0.7679448708775043,0.15018376,0.08734966757031909,-5.399280098198398,-3.7506551146661913,-3.883917067810491,0.0323560422803275
56,-21.119999999999987,-42.23999999999997,-0.7372270760424042,0.13957676000000002,0.0802010662301275,-4.987585693598906,-3.3528426601977555,-3.6924865804699296,0.03216027599608283
57,-20.239999999999988,-40.479999999999976,-0.7065092812073042,0.13120376,0.07452080493908202,-4.661284945933574,-3.0260249733972824,-3.5455253782144815,0.0319743614919284
58,-19.35999999999999,-38.719999999999985,-0.6757914863722041,0.11943575999999999,0.06709074688371751,-4.219803666581982,-2.639550658627559,-3.2923419180026787,0.03179804189234266
59,-18.47999999999999,-36.959999999999994,-0.645073691537104,0.11305076,0.06283895211516467,-3.9732414123100424,-2.388940498264531,-3.174840250508223,0.031631076793106366
60,-17.59999999999999,-35.199999999999974,-0.6143558967020035,0.10316376,0.056772445661608384,-3.607664359495153,-2.0795743227070034,-2.9479845262669344,0.03147324141293065
61,-16.71999999999999,-33.43999999999998,-0.5836381018669035,0.09387276,0.05117178269508806,-3.267223243642207,-1.8004472787378203,-2.726378058942208,0.03132432581377159
62,-15.839999999999993,-31.67999999999999,-0.5529203070318034,0.08499775999999999,0.045920050457194043,-2.9450906146966647,-1.546686873775805,-2.506255861492199,0.03118413418455966
63,-14.959999999999994,-29.919999999999995,-0.5222025121967033,0.07652975999999999,0.040996855272491674,-2.6404879577492752,-1.317049816051131,-2.2885708284994415,0.03105248418359535
64,-14.079999999999995,-28.15999999999998,-0.4914847173616028,0.06771576,0.03598775901778182,-2.327105236882151,-1.098243303304984,-2.051653096961104,0.030929206335333692
65,-13.199999999999996,-26.399999999999984,-0.46076692252650275,0.059347760000000006,0.03130632053076722,-2.031944879689323,-0.9034741756745575,-1.8200369248959858,0.030814143477704812
66,-12.319999999999997,-24.639999999999993,-0.4300491276914027,0.04951976,0.025940900879938687,-1.6895674566509966,-0.7044067888541466,-1.5357243458349896,0.030707150256501583
67,-11.439999999999998,-22.880000000000003,-0.3993313328563026,0.04296276,0.022361050542899163,-1.4611201546320902,-0.5680869820045975,-1.346160943999272,0.03060809266371344
68,-10.559999999999999,-21.120000000000008,-0.36861353802120256,0.03506376,0.018141171045177974,-1.1889282453323429,-0.42839753633029726,-1.1090653377575082,0.030516847617001387
69,-9.68,-19.359999999999992,-0.33789574318610205,0.026566760000000002,0.013669865930306897,-0.8983491617685806,-0.29780504452231554,-0.8475513977968375,0.03043330257779731
70,-8.8,-17.599999999999998,-0.307177948351002,0.01956476,0.01001682033536831,-0.6599270764841295,-0.19954207801976645,-0.6290363307285547,0.030357355205773873
71,-7.920000000000001,-15.840000000000007,-0.2764601535159019,0.011701760000000002,0.00596411567964299,-0.39381510127192987,-0.10749259412812474,-0.3788610249120733,0.030288913047672898
72,-7.040000000000001,-14.07999999999999,-0.2457423586808014,0.0005907600000000009,0.00029988471922808756,-0.019841589135012196,-0.004826991322505147,-0.019245488151125034,0.03022789325870226
73,-6.160000000000001,-12.319999999999997,-0.21502456384570134,-0.008815239999999998,-0.004458962380599189,0.29554779096884254,0.06306145376793998,0.2887416661918342,0.030174222354916975
74,-5.280000000000001,-10.560000000000004,-0.18430676901060128,-0.01691724,-0.008530861330509953,0.566310924679203,0.10378502117121914,0.5567196177534105,0.030127835995190855
75,-4.400000000000001,-8.800000000000011,-0.15358897417550121,-0.026982239999999998,-0.013570996295892744,0.9020666138187468,0.13800341529897156,0.8914478297310727,0.030088678791563347
76,-3.5200000000000014,-7.039999999999995,-0.1228711793404007,-0.03512624,-0.017629576195513707,1.1730877816371834,0.14377626809109,1.16424367215813,0.030056704146913096
77,-2.6400000000000015,-5.280000000000002,-0.09215338450530064,-0.04397424,-0.022033866158747598,1.4673653779574125,0.13503137641000304,1.4611391719521176,0.03003187411906769
78,-1.7600000000000016,-3.52000000000001,-0.061435589670200574,-0.053241239999999995,-0.02664575457188235,1.7755456213937202,0.1090130867705163,1.772195926121933,0.030014159310608624
79,-0.8800000000000017,-1.7599999999999922,-0.030717794835100065,-0.061214239999999996,-0.030614341224522574,2.0407153599547274,0.06267641792584146,2.039752643579887,0.03000353878377408
80,-1.7763568394002505e-15,0.0,0.0,-0.06954924000000001,-0.034774620000000006,2.3183080000000005,-0.0,2.3183080000000005,0.03
81,-0.8800000000000017,-1.7599999999999922,-0.030717794835100065,-0.05194924,-0.025980748265675067,1.7318455968084312,0.05319011192771226,1.7310285910919752,0.03000353878377408
82,-1.7763568394002505e-15,0.0,0.0,-0.06407524,-0.03203762,2.1358413333333335,-0.0,2.1358413333333335,0.03
83,0.8799999999999981,1.7599999999999922,0.030717794835100065,-0.07443124000000001,-0.03722440038664752,2.4813339956271077,-0.0762091223378516,2.4801634154884393,0.03000353878377408
84,1.759999999999998,3.5199999999999845,0.06143558967020013,-0.08311524,-0.041596857740787016,2.7718156161105227,-0.17018102640119243,2.766586385415643,0.030014159310608624
85,2.639999999999998,5.280000000000002,0.09215338450530064,-0.09151724,-0.04585590603448706,3.0538158126716746,-0.281021317990819,3.040858108586828,0.03003187411906769
86,3.519999999999998,7.039999999999995,0.1228711793404007,-0.10120424,-0.050793590785380274,3.3798510001035433,-0.4142421147892576,3.354369725184725,0.030056704146913096
87,4.399999999999998,8.799999999999986,0.15358897417550077,-0.10998524000000001,-0.0553182124479982,3.677011731303339,-0.5625307147396591,3.633727351785886,0.030088678791563347
88,3.519999999999998,7.039999999999995,0.1228711793404007,-0.08832124000000001,-0.044327717121509534,2.949605978409453,-0.3615103205005005,2.92736839431603,0.030056704146913096
89,4.399999999999998,8.799999999999986,0.15358897417550077,-0.10179224,-0.05119745847604296,3.4031044587041404,-0.5206267815767908,3.3630444111187403,0.030088678791563347
90,5.279999999999998,10.560000000000004,0.18430676901060128,-0.11245924,-0.05670985230300795,3.7646150431820087,-0.6899225053436148,3.70085576049279,0.030127835995190855
91,6.1599999999999975,12.319999999999997,0.21502456384570134,-0.12140924,-0.06141174078268299,4.070477115223867,-0.8685235087485685,3.9767387216552574,0.030174222354916975
92,7.039999999999997,14.07999999999999,0.2457423586808014,-0.12941024,-0.06569191124591944,4.346443245892269,-1.0573872732129928,4.215863024839602,0.03022789325870226
93,7.919999999999997,15.839999999999982,0.2764601535159015,-0.13844224,-0.07056079891476989,4.6591832994278475,-1.2717330995088272,4.482263261041349,0.030288913047672898
94,8.799999999999997,17.599999999999998,0.307177948351002,-0.14765624,-0.07559745314923483,4.98050325114333,-1.505954223930442,4.747369219902255,0.030357355205773873
95,9.679999999999996,19.359999999999992,0.33789574318610205,-0.15679923999999998,-0.08068069229270013,5.3021319054318425,-1.757670286074223,5.002319252911599,0.03043330257779731
96,10.559999999999995,21.119999999999983,0.3686135380212021,-0.16492524,-0.0853284698648128,5.592220463641536,-2.0150025694529887,5.21657879831878,0.030516847617001387
97,11.439999999999994,22.880000000000003,0.3993313328563026,-0.17610124,-0.09165632581117264,5.989025635683155,-2.3285473735595037,5.5178161616675085,0.03060809266371344
98,10.559999999999995,21.119999999999983,0.3686135380212021,-0.15914824,-0.08233958489845455,5.396336209548849,-1.9444210754152658,5.033852517502771,0.030516847617001387
99,11.439999999999994,22.880000000000003,0.3993313328563026,-0.17174624,-0.08938965637200424,5.840916476182629,-2.270962181019964,5.381360056167842,0.03060809266371344
100,12.319999999999993,24.639999999999993,0.4300491276914027,-0.18248424,-0.09559427553750144,6.226189974581662,-2.5957948405826157,5.659265919285457,0.030707150256501583
101,13.199999999999992,26.399999999999984,0.46076692252650275,-0.19133924,-0.10093266498269515,6.551060882527773,-2.9128321293541037,5.867862274524514,0.030814143477704812
102,14.079999999999991,28.15999999999998,0.4914847173616028,-0.20148924,-0.10708210634859602,6.924335864788412,-3.267839104486322,6.1047239704662415,0.030929206335333692
103,14.95999999999999,29.91999999999997,0.5222025121967029,-0.20784724,-0.11134339395637519,7.1713034807821625,-3.5769767108734576,6.215531451400376,0.03105248418359535
104,15.83999999999999,31.679999999999964,0.552920307031803,-0.21584224,-0.11660879712116867,7.478725972062146,-3.927637144959665,6.364354533079531,0.03118413418455966
105,16.719999999999988,33.43999999999998,0.5836381018669035,-0.22329324,-0.12172128692670957,7.771678001969663,-4.282687611598413,6.485180474571287,0.03132432581377159
106,17.599999999999987,35.199999999999974,0.6143558967020035,-0.23623523999999999,-0.1300035237786701,8.261209709735123,-4.762028247346999,6.750605368386687,0.03147324141293065
107,16.719999999999988,33.43999999999998,0.5836381018669035,-0.21728824,-0.11844785004167493,7.562675139178887,-4.167513775132748,6.310775245152785,0.03132432581377159
108,17.599999999999987,35.199999999999974,0.6143558967020035,-0.23082223999999998,-0.1270246749235461,8.071915647770462,-4.652913032771521,6.59592469136713,0.03147324141293065
109,18.479999999999986,36.959999999999965,0.6450736915371036,-0.24054524,-0.13370640602407974,8.454116620729113,-5.0830995342336545,6.755308058257731,0.031631076793106366
110,19.359999999999985,38.719999999999985,0.6757914863722041,-0.24840324,-0.13953575461767342,8.776374035237389,-5.489753954320044,6.847433294849716,0.03179804189234266
111,20.239999999999984,40.479999999999976,0.7065092812073042,-0.25699424,-0.14596698775635414,9.13025192344823,-5.927200472450291,6.9447674363520004,0.0319743614919284
112,21.119999999999983,42.23999999999997,0.7372270760424042,-0.26600624,-0.1528476808880446,9.505371216755831,-6.389867979101982,7.037163432660733,0.03216027599608283
113,21.999999999999982,43.99999999999996,0.7679448708775043,-0.27286724,-0.15870466090894564,9.809893282618079,-6.814524482080134,7.056646675261969,0.0323560422803275
114,22.87999999999998,45.75999999999995,0.7986626657126044,-0.28127024,-0.1656806075412161,10.176336848729417,-7.290569100369105,7.09967843296803,0.03256193461439957
